cycle,stress,F2_actual,d1,Cr,wear_depth
0.0,125.0,2000,10.0,0.013000000000000001,1.125e-06
753.7688442211055,124.92079723395064,2000,10.0,0.013000000000000001,2.249287175105556e-06
1507.537688442211,124.84125379655157,2000,10.0,0.013000000000000001,3.37285845927452e-06
2261.3065326633164,124.76103674413623,2000,10.0,0.013000000000000001,4.495707789971746e-06
3015.075376884422,124.67982841311195,2000,10.0,0.013000000000000001,5.617826245689753e-06
3768.8442211055276,124.59733362574218,2000,10.0,0.013000000000000001,6.739202248321433e-06
4522.613065326633,124.51328638586676,2000,10.0,0.013000000000000001,7.859821825794234e-06
5276.381909547738,124.42745591267608,2000,10.0,0.013000000000000001,8.979668929008319e-06
6030.150753768844,124.3396518756714,2000,10.0,0.013000000000000001,1.0098725795889361e-05
6783.91959798995,124.2497287120628,2000,10.0,0.013000000000000001,1.1216973354297926e-05
7537.688442211055,124.15758892867026,2000,10.0,0.013000000000000001,1.2334391654655958e-05
8291.45728643216,124.06318531342868,2000,10.0,0.013000000000000001,1.3450960322476816e-05
9045.226130653265,123.96652200633173,2000,10.0,0.013000000000000001,1.4566659020533802e-05
9798.994974874371,123.86765440552155,2000,10.0,0.013000000000000001,1.5681467910183494e-05
10552.763819095477,123.76668791065445,2000,10.0,0.013000000000000001,1.6795368101379386e-05
11306.532663316582,123.66377553204781,2000,10.0,0.013000000000000001,1.7908342081167817e-05
12060.301507537688,123.55911441984163,2000,10.0,0.013000000000000001,1.9020374110946392e-05
12814.070351758794,123.4529413919059,2000,10.0,0.013000000000000001,2.0131450583473545e-05
13567.8391959799,123.34552756193756,2000,10.0,0.013000000000000001,2.1241560331530983e-05
14321.608040201005,123.23717218960165,2000,10.0,0.013000000000000001,2.2350694881237398e-05
15075.37688442211,123.1281958922179,2000,10.0,0.013000000000000001,2.345884864426736e-05
15829.145728643216,123.01893337197706,2000,10.0,0.013000000000000001,2.4566019044615153e-05
16582.91457286432,122.90972582366027,2000,10.0,0.013000000000000001,2.5672206577028094e-05
17336.683417085427,122.80091319508266,2000,10.0,0.013000000000000001,2.677741479578384e-05
18090.45226130653,122.69282647582254,2000,10.0,0.013000000000000001,2.7881650234066243e-05
18844.22110552764,122.58578018915676,2000,10.0,0.013000000000000001,2.8984922255768654e-05
19597.989949748742,122.48006525751214,2000,10.0,0.013000000000000001,3.0087242843086262e-05
20351.75879396985,122.3759424032716,2000,10.0,0.013000000000000001,3.1188626324715704e-05
21105.527638190953,122.27363623462857,2000,10.0,0.013000000000000001,3.228908905082736e-05
21859.29648241206,122.17333015064447,2000,10.0,0.013000000000000001,3.3388649022183164e-05
22613.065326633165,122.07516218108123,2000,10.0,0.013000000000000001,3.448732548181289e-05
23366.834170854272,121.9792218553772,2000,10.0,0.013000000000000001,3.5585138478511284e-05
24120.603015075376,121.88554817178908,2000,10.0,0.013000000000000001,3.6682108412057386e-05
24874.37185929648,121.79412871276755,2000,10.0,0.013000000000000001,3.777825557047229e-05
25628.140703517587,121.70489992663313,2000,10.0,0.013000000000000001,3.887359966981199e-05
26381.90954773869,121.61774856916279,2000,10.0,0.013000000000000001,3.996815940693445e-05
27135.6783919598,121.53251427238665,2000,10.0,0.013000000000000001,4.106195203538593e-05
27889.447236180902,121.44899318232531,2000,10.0,0.013000000000000001,4.215499297402686e-05
28643.21608040201,121.36694258315019,2000,10.0,0.013000000000000001,4.324729545727521e-05
29396.984924623113,121.28608640287398,2000,10.0,0.013000000000000001,4.4338870234901076e-05
30150.75376884422,121.20612147568193,2000,10.0,0.013000000000000001,4.5429725328182216e-05
30904.522613065325,121.12672441885108,2000,10.0,0.013000000000000001,4.6519865847951876e-05
31658.291457286432,121.0475589682635,2000,10.0,0.013000000000000001,4.7609293878666246e-05
32412.060301507536,120.96828360611711,2000,10.0,0.013000000000000001,4.86980084311213e-05
33165.82914572864,120.88855930780962,2000,10.0,0.013000000000000001,4.978600546489159e-05
33919.59798994975,120.80805723226706,2000,10.0,0.013000000000000001,5.087327797998199e-05
34673.366834170854,120.7264661812729,2000,10.0,0.013000000000000001,5.1959816175613444e-05
35427.13567839196,120.6434996585916,2000,10.0,0.013000000000000001,5.304560767254077e-05
36180.90452261306,120.5589023687603,2000,10.0,0.013000000000000001,5.4130637793859615e-05
36934.67336683417,120.4724560081318,2000,10.0,0.013000000000000001,5.52148898979328e-05
37688.44221105528,120.38398421680682,2000,10.0,0.013000000000000001,5.629834575588406e-05
38442.21105527638,120.29335657912708,2000,10.0,0.013000000000000001,5.7380985965096205e-05
39195.979899497484,120.20049158198363,2000,10.0,0.013000000000000001,5.846279038933406e-05
39949.74874371859,120.10535846383496,2000,10.0,0.013000000000000001,5.9543738615508574e-05
40703.5175879397,120.00797791249218,2000,10.0,0.013000000000000001,6.0623810416721e-05
41457.2864321608,119.90842159584321,2000,10.0,0.013000000000000001,6.17029862110836e-05
42211.05527638191,119.80681053616058,2000,10.0,0.013000000000000001,6.278124750590905e-05
42964.824120603014,119.70331236486984,2000,10.0,0.013000000000000001,6.385857731719287e-05
43718.59296482412,119.59813752005034,2000,10.0,0.013000000000000001,6.493496055487332e-05
44472.36180904522,119.49153447292319,2000,10.0,0.013000000000000001,6.601038436512964e-05
45226.13065326633,119.38378409160713,2000,10.0,0.013000000000000001,6.70848384219541e-05
45979.89949748744,119.27519326999345,2000,10.0,0.013000000000000001,6.815831516138403e-05
46733.668341708544,119.16608796626025,2000,10.0,0.013000000000000001,6.923080995308037e-05
47487.437185929644,119.05680580893822,2000,10.0,0.013000000000000001,7.030232120536082e-05
48241.20603015075,118.94768843824997,2000,10.0,0.013000000000000001,7.137285040130507e-05
48994.97487437186,118.83907375644925,2000,10.0,0.013000000000000001,7.244240206511312e-05
49748.74371859296,118.73128826295125,2000,10.0,0.013000000000000001,7.351098365947968e-05
50502.51256281407,118.62463964812105,2000,10.0,0.013000000000000001,7.457860541631278e-05
51256.281407035174,118.51940981372107,2000,10.0,0.013000000000000001,7.564528010463626e-05
52010.05025125628,118.41584847833896,2000,10.0,0.013000000000000001,7.671102274094131e-05
52763.81909547738,118.31416751284873,2000,10.0,0.013000000000000001,7.777585024855695e-05
53517.58793969849,118.2145361343975,2000,10.0,0.013000000000000001,7.883978107376653e-05
54271.3567839196,118.1170770679365,2000,10.0,0.013000000000000001,7.990283476737797e-05
55025.125628140704,118.02186376236618,2000,10.0,0.013000000000000001,8.096503154123926e-05
55778.894472361804,117.92891872444422,2000,10.0,0.013000000000000001,8.202639180975926e-05
56532.66331658291,117.83821300824927,2000,10.0,0.013000000000000001,8.30869357268335e-05
57286.43216080402,117.74966687178119,2000,10.0,0.013000000000000001,8.414668272867953e-05
58040.20100502513,117.66315158580385,2000,10.0,0.013000000000000001,8.520565109295176e-05
58793.96984924623,117.57849235389918,2000,10.0,0.013000000000000001,8.626385752413686e-05
59547.738693467334,117.49547227749471,2000,10.0,0.013000000000000001,8.732131677463431e-05
60301.50753768844,117.41383727592364,2000,10.0,0.013000000000000001,8.837804131011763e-05
61055.27638190954,117.33330184991168,2000,10.0,0.013000000000000001,8.943404102676683e-05
61809.04522613065,117.25355555775394,2000,10.0,0.013000000000000001,9.048932302678661e-05
62562.81407035176,117.17427005727819,2000,10.0,0.013000000000000001,9.154389145730212e-05
63316.582914572864,117.09510655385681,2000,10.0,0.013000000000000001,9.259774741628683e-05
64070.351758793964,117.01572348551883,2000,10.0,0.013000000000000001,9.36508889276565e-05
64824.12060301507,116.93578427083565,2000,10.0,0.013000000000000001,9.470331098609402e-05
65577.88944723617,116.85496494382978,2000,10.0,0.013000000000000001,9.575500567058849e-05
66331.65829145728,116.77296150271832,2000,10.0,0.013000000000000001,9.680596232411295e-05
67085.42713567839,116.68949680579512,2000,10.0,0.013000000000000001,9.78561677953651e-05
67839.1959798995,116.60432685802708,2000,10.0,0.013000000000000001,9.890560673708735e-05
68592.9648241206,116.51724634576193,2000,10.0,0.013000000000000001,9.99542619541992e-05
69346.73366834171,116.42809329399917,2000,10.0,0.013000000000000001,0.0001010021147938452
70100.50251256282,116.33675274058078,2000,10.0,0.013000000000000001,0.00010204914556851042
70854.27135678392,116.24315934395706,2000,10.0,0.013000000000000001,0.00010309533400260604
71608.04020100502,116.14729886537415,2000,10.0,0.013000000000000001,0.00010414065969239441
72361.80904522612,116.04920849186142,2000,10.0,0.013000000000000001,0.00010518510256882116
73115.57788944723,115.94897599269251,2000,10.0,0.013000000000000001,0.00010622864335275539
73869.34673366834,115.84673772845427,2000,10.0,0.013000000000000001,0.00010727126399231147
74623.11557788945,115.74267555788566,2000,10.0,0.013000000000000001,0.00010831294807233245
75376.88442211055,115.63701271265055,2000,10.0,0.013000000000000001,0.0001093536811867463
76130.65326633166,115.5300087336199,2000,10.0,0.013000000000000001,0.00011039345126534889
76884.42211055275,115.42195358352731,2000,10.0,0.013000000000000001,0.00011143224884760063
77638.19095477386,115.31316106954438,2000,10.0,0.013000000000000001,0.00011247006729722653
78391.95979899497,115.20396172497627,2000,10.0,0.013000000000000001,0.00011350690295275131
79145.72864321608,115.09469531154673,2000,10.0,0.013000000000000001,0.00011454275521055524
79899.49748743718,114.98570311234887,2000,10.0,0.013000000000000001,0.00011557762653856638
80653.26633165829,114.87732019028522,2000,10.0,0.013000000000000001,0.00011661152242027895
81407.0351758794,114.76986778760498,2000,10.0,0.013000000000000001,0.0001176444512303674
82160.8040201005,114.66364603894459,2000,10.0,0.013000000000000001,0.0001186764240447179
82914.5728643216,114.55892716316683,2000,10.0,0.013000000000000001,0.0001197074543891864
83668.3417085427,114.45594928843258,2000,10.0,0.013000000000000001,0.0001207375579327823
84422.11055276381,114.35491105057565,2000,10.0,0.013000000000000001,0.00012176675213223747
85175.87939698492,114.25596708730914,2000,10.0,0.013000000000000001,0.00012279505583602326
85929.64824120603,114.15922453047163,2000,10.0,0.013000000000000001,0.0001238224888567975
86683.41708542714,114.06474057588176,2000,10.0,0.013000000000000001,0.00012484907152198046
87437.18592964824,113.972521185926,2000,10.0,0.013000000000000001,0.0001258748242126538
88190.95477386934,113.88252095430985,2000,10.0,0.013000000000000001,0.00012689976690124258
88944.72361809044,113.79464413604003,2000,10.0,0.013000000000000001,0.00012792391869846694
89698.49246231155,113.70874681927427,2000,10.0,0.013000000000000001,0.0001289472974198404
90452.26130653266,113.62464018977266,2000,10.0,0.013000000000000001,0.00012996991918154836
91206.03015075377,113.54209481390149,2000,10.0,0.013000000000000001,0.00013099179803487346
91959.79899497487,113.46084584303443,2000,10.0,0.013000000000000001,0.00013201294564746076
92713.56783919598,113.38059902129656,2000,10.0,0.013000000000000001,0.00013303337103865242
93467.33668341709,113.30103736037321,2000,10.0,0.013000000000000001,0.00013405308037489578
94221.10552763818,113.22182832997461,2000,10.0,0.013000000000000001,0.00013507207682986555
94974.87437185929,113.14263140084961,2000,10.0,0.013000000000000001,0.00013609036051247318
95728.6432160804,113.06310576924554,2000,10.0,0.013000000000000001,0.00013710792846439638
96482.4120603015,112.98291808759468,2000,10.0,0.013000000000000001,0.00013812477472718472
97236.18090452261,112.90175002606708,2000,10.0,0.013000000000000001,0.0001391408904774193
97989.94974874372,112.8193054934654,2000,10.0,0.013000000000000001,0.0001401562642268605
98743.71859296483,112.73531735366596,2000,10.0,0.013000000000000001,0.0001411708820830435
99497.48743718592,112.64955348525136,2000,10.0,0.013000000000000001,0.00014218472806441077
100251.25628140703,112.5618220468808,2000,10.0,0.013000000000000001,0.00014319778446283268
101005.02512562813,112.47197582895951,2000,10.0,0.013000000000000001,0.00014421003224529333
101758.79396984924,112.37991559289534,2000,10.0,0.013000000000000001,0.00014522145148562938
102512.56281407035,112.28559232219631,2000,10.0,0.013000000000000001,0.00014623202181652915
103266.33165829146,112.18900833434546,2000,10.0,0.013000000000000001,0.00014724172289153826
104020.10050251256,112.09021722823177,2000,10.0,0.013000000000000001,0.00014825053484659236
104773.86934673367,111.98932266832955,2000,10.0,0.013000000000000001,0.00014925843875060734
105527.63819095476,111.88647603320587,2000,10.0,0.013000000000000001,0.0001502654170349062
106281.40703517587,111.7818729816959,2000,10.0,0.013000000000000001,0.00015127145389174146
107035.17587939698,111.67574901463884,2000,10.0,0.013000000000000001,0.00015227653563287322
107788.94472361809,111.56837413284991,2000,10.0,0.013000000000000001,0.00015328065100006887
108542.7135678392,111.46004671250572,2000,10.0,0.013000000000000001,0.0001542837914204814
109296.4824120603,111.35108673687171,2000,10.0,0.013000000000000001,0.00015528595120111325
110050.25125628141,111.24182853790113,2000,10.0,0.013000000000000001,0.00015628712765795437
110804.0201005025,111.13261321235277,2000,10.0,0.013000000000000001,0.00015728732117686555
111557.78894472361,111.02378088445803,2000,10.0,0.013000000000000001,0.00015828653520482568
112311.55778894472,110.91566299064849,2000,10.0,0.013000000000000001,0.00015928477617174153
113065.32663316582,110.8085747613547,2000,10.0,0.013000000000000001,0.00016028205334459372
113819.09547738693,110.7028080704171,2000,10.0,0.013000000000000001,0.0001612783786172275
114572.86432160804,110.59862481431033,2000,10.0,0.013000000000000001,0.00016227376624055627
115326.63316582915,110.496250971365,2000,10.0,0.013000000000000001,0.00016326823249929856
116080.40201005025,110.39587147574537,2000,10.0,0.013000000000000001,0.00016426179534258028
116834.17085427135,110.29762602246014,2000,10.0,0.013000000000000001,0.00016525447397678242
117587.93969849245,110.20160589856432,2000,10.0,0.013000000000000001,0.0001662462884298695
118341.70854271356,110.10785191243207,2000,10.0,0.013000000000000001,0.0001672372590970814
119095.47738693467,110.01635346807198,2000,10.0,0.013000000000000001,0.00016822740627829403
119849.24623115578,109.92704880548352,2000,10.0,0.013000000000000001,0.0001692167497175434
120603.01507537688,109.83982640160157,2000,10.0,0.013000000000000001,0.00017020530815515782
121356.78391959799,109.75452750005101,2000,10.0,0.013000000000000001,0.00017119309890265827
122110.55276381908,109.67094971232704,2000,10.0,0.013000000000000001,0.0001721801374500692
122864.32160804019,109.58885160871327,2000,10.0,0.013000000000000001,0.00017316643711454762
123618.0904522613,109.50795819479836,2000,10.0,0.013000000000000001,0.0001741520087383008
124371.8592964824,109.42796714936381,2000,10.0,0.013000000000000001,0.00017513686044264508
125125.62814070351,109.3485556821448,2000,10.0,0.013000000000000001,0.00017612099744378437
125879.39698492462,109.26938785590416,2000,10.0,0.013000000000000001,0.00017710442193448752
126633.16582914573,109.1901222067284,2000,10.0,0.013000000000000001,0.00017808713303434808
127386.93467336684,109.11041948968916,2000,10.0,0.013000000000000001,0.00017906912680975529
128140.70351758793,109.02995037416976,2000,10.0,0.013000000000000001,0.0001800503963631228
128894.47236180904,108.9484029142987,2000,10.0,0.013000000000000001,0.0001810309319893515
129648.24120603014,108.86548962503295,2000,10.0,0.013000000000000001,0.00018201072139597678
130402.01005025125,108.78095400337935,2000,10.0,0.013000000000000001,0.0001829897499820072
131155.77889447234,108.69457634682894,2000,10.0,0.013000000000000001,0.00018396800116912866
131909.54773869345,108.60617873702046,2000,10.0,0.013000000000000001,0.00018494545677776185
132663.31658291456,108.51562907558514,2000,10.0,0.013000000000000001,0.0001859220974394421
133417.08542713567,108.42284408062508,2000,10.0,0.013000000000000001,0.00018689790303616773
134170.85427135677,108.32779117585412,2000,10.0,0.013000000000000001,0.0001878728531567504
134924.62311557788,108.23048922954801,2000,10.0,0.013000000000000001,0.00018884692755981634
135678.391959799,108.13100812654241,2000,10.0,0.013000000000000001,0.00018982010663295523
136432.1608040201,108.02946718298693,2000,10.0,0.013000000000000001,0.00019079237183760212
137185.9296482412,107.92603243981468,2000,10.0,0.013000000000000001,0.00019176370612956044
137939.6984924623,107.82091289632122,2000,10.0,0.013000000000000001,0.00019273409434562733
138693.46733668342,107.71435576928955,2000,10.0,0.013000000000000001,0.00019370352354755095
139447.23618090453,107.60664088520127,2000,10.0,0.013000000000000001,0.00019467198331551776
140201.00502512563,107.49807433273955,2000,10.0,0.013000000000000001,0.00019563946598451243
140954.77386934674,107.38898151956857,2000,10.0,0.013000000000000001,0.00019660596681818856
141708.54271356785,107.27969979088701,2000,10.0,0.013000000000000001,0.00019757148411630654
142462.31155778893,107.17057077719429,2000,10.0,0.013000000000000001,0.0001985360192533013
143216.08040201003,107.06193264485053,2000,10.0,0.013000000000000001,0.00019949957664710494
143969.84924623114,106.95411242521568,2000,10.0,0.013000000000000001,0.00020046216365893189
144723.61809045225,106.84741859637177,2000,10.0,0.013000000000000001,0.00020142379042629923
145477.38693467336,106.74213408570186,2000,10.0,0.013000000000000001,0.00020238446963307056
146231.15577889446,106.63850985205315,2000,10.0,0.013000000000000001,0.00020334421622173902
146984.92462311557,106.53675919306436,2000,10.0,0.013000000000000001,0.0002043030470544766
147738.69346733668,106.43705290678832,2000,10.0,0.013000000000000001,0.0002052609805306377
148492.46231155779,106.3395154173621,2000,10.0,0.013000000000000001,0.00020621803616939396
149246.2311557789,106.24422195260831,2000,10.0,0.013000000000000001,0.00020717423416696744
150000.0,106.15119683759072,2000,10.0,0.013000000000000001,0.00020812959493850575
