cycle,stress,F2_actual,d1,Cr,wear_depth
0.0,118.34733893557423,5200,17.0,0.005,2.769327731092437e-06
753.7688442211055,118.2731507381664,5200,17.0,0.005,5.536919458365531e-06
1507.537688442211,118.19862186940884,5200,17.0,0.005,8.302767210109698e-06
2261.3065326633164,118.12341938563505,5200,17.0,0.005,1.1066855223733559e-05
3015.075376884422,118.04722562325229,5200,17.0,0.005,1.3829160303317664e-05
3768.8442211055276,117.96974540452405,5200,17.0,0.005,1.6589652345783525e-05
4522.613065326633,117.89071273329014,5200,17.0,0.005,1.9348295023742515e-05
5276.381909547738,117.80989682874099,5200,17.0,0.005,2.2105046609535055e-05
6030.150753768844,117.72710736037784,5200,17.0,0.005,2.4859860921767897e-05
6783.91959798995,117.64219876541078,5200,17.0,0.005,2.761268837287851e-05
7537.688442211055,117.55507355065976,5200,17.0,0.005,3.036347709396395e-05
8291.45728643216,117.4656845040597,5200,17.0,0.005,3.311217411135895e-05
9045.226130653265,117.37403576560429,5200,17.0,0.005,3.585872654827409e-05
9798.994974874371,117.28018273343564,5200,17.0,0.005,3.860308282423648e-05
10552.763819095477,117.18423080721006,5200,17.0,0.005,4.134519382512519e-05
11306.532663316582,117.08633299724494,5200,17.0,0.005,4.408501401726072e-05
12060.301507537688,116.98668645368029,5200,17.0,0.005,4.682250248027684e-05
12814.070351758794,116.8855279943861,5200,17.0,0.005,4.9557623835345476e-05
13567.8391959799,116.78312873305927,5200,17.0,0.005,5.2290349047699065e-05
14321.608040201005,116.67978792936489,5200,17.0,0.005,5.50206560852462e-05
15075.37688442211,116.57582620062267,5200,17.0,0.005,5.774853041834077e-05
15829.145728643216,116.47157824902334,5200,17.0,0.005,6.0473965349367916e-05
16582.91457286432,116.36738526934809,5200,17.0,0.005,6.319696216467066e-05
17336.683417085427,116.26358720941201,5200,17.0,0.005,6.59175301053709e-05
18090.45226130653,116.16051505879342,5200,17.0,0.005,6.863568615774667e-05
18844.22110552764,116.05848334076916,5200,17.0,0.005,7.135145466792066e-05
19597.989949748742,115.95778297776606,5200,17.0,0.005,7.40648667896004e-05
20351.75879396985,115.85867469216706,5200,17.0,0.005,7.677595977739711e-05
21105.527638190953,115.76138309216556,5200,17.0,0.005,7.948477614175379e-05
21859.29648241206,115.66609157682298,5200,17.0,0.005,8.219136268465145e-05
22613.065326633165,115.57293817590126,5200,17.0,0.005,8.489576943796754e-05
23366.834170854272,115.48201241883878,5200,17.0,0.005,8.759804852856837e-05
24120.603015075376,115.39335330389218,5200,17.0,0.005,9.029825299587945e-05
24874.37185929648,115.30694841351216,5200,17.0,0.005,9.299643558875563e-05
25628.140703517587,115.22273419601927,5200,17.0,0.005,9.569264756894248e-05
26381.90954773869,115.14059740719046,5200,17.0,0.005,9.838693754827074e-05
27135.6783919598,115.06037767905585,5200,17.0,0.005,0.00010107935038596064
27889.447236180902,114.98187115763604,5200,17.0,0.005,0.00010376992617104932
28643.21608040201,114.90483512710244,5200,17.0,0.005,0.00010645869931302352
29396.984924623113,114.82899351546776,5200,17.0,0.005,0.00010914569776128546
30150.75376884422,114.75404315691723,5200,17.0,0.005,0.00011183094237115732
30904.522613065325,114.67966066872792,5200,17.0,0.005,0.00011451444643080555
31658.291457286432,114.60550978678187,5200,17.0,0.005,0.00011719621535981625
32412.060301507536,114.531248993277,5200,17.0,0.005,0.00011987624658625893
33165.82914572864,114.45653926361102,5200,17.0,0.005,0.00012255452960502743
33919.59798994975,114.38105175671001,5200,17.0,0.005,0.00012523104621613444
34673.366834170854,114.30447527435737,5200,17.0,0.005,0.0001279057709375544
35427.13567839196,114.2265233203176,5200,17.0,0.005,0.00013057867158324982
36180.90452261306,114.14694059912782,5200,17.0,0.005,0.00013324970999326942
36934.67336683417,114.06550880714084,5200,17.0,0.005,0.00013591884289935652
37688.44221105528,113.98205158445741,5200,17.0,0.005,0.00013858602290643283
38442.21105527638,113.89643851541918,5200,17.0,0.005,0.00014125119956769365
39195.979899497484,113.80858808691725,5200,17.0,0.005,0.00014391432052892751
39949.74874371859,113.71846953741012,5200,17.0,0.005,0.0001465753327161029
40703.5175879397,113.62610355470886,5200,17.0,0.005,0.0001492341835392831
41457.2864321608,113.53156180670142,5200,17.0,0.005,0.0001518908220855599
42211.05527638191,113.43496531566032,5200,17.0,0.005,0.00015454520027394634
42964.824120603014,113.33648171301111,5200,17.0,0.005,0.0001571972739460308
43718.59296482412,113.23632143683314,5200,17.0,0.005,0.0001598470038676527
44472.36180904522,113.13473295834751,5200,17.0,0.005,0.00016249435661887802
45226.13065326633,113.03199714567297,5200,17.0,0.005,0.00016513930535208676
45979.89949748744,112.92842089270083,5200,17.0,0.005,0.00016778183040097597
46733.668341708544,112.82433015760915,5200,17.0,0.005,0.00017042191972666402
47487.437185929644,112.72006256892864,5200,17.0,0.005,0.00017305956919077696
48241.20603015075,112.61595976688193,5200,17.0,0.005,0.000175694782649322
48994.97487437186,112.51235965372274,5200,17.0,0.005,0.00017832757186521912
49748.74371859296,112.40958872886625,5200,17.0,0.005,0.0001809579562414746
50502.51256281407,112.30795468267758,5200,17.0,0.005,0.00018358596238104925
51256.281407035174,112.20773941691913,5200,17.0,0.005,0.00018621162348340516
52010.05025125628,112.10919265017856,5200,17.0,0.005,0.00018883497859141933
52763.81909547738,112.01252625332984,5200,17.0,0.005,0.00019145607170574725
53517.58793969849,111.91790944352014,5200,17.0,0.005,0.0001940749507867256
54271.3567839196,111.82546494570067,5200,17.0,0.005,0.000196691666666455
55025.125628140704,111.73526620877188,5200,17.0,0.005,0.00019930627189574028
55778.894472361804,111.64733573949144,5200,17.0,0.005,0.00020191881955204438
56532.66331658291,111.56164459193802,5200,17.0,0.005,0.00020452936203549572
57286.43216080402,111.47811302411147,5200,17.0,0.005,0.00020713794988025993
58040.20100502513,111.39661230677565,5200,17.0,0.005,0.00020974463060823847
58793.96984924623,111.31696764351251,5200,17.0,0.005,0.00021234944765109666
59547.738693467334,111.23896213574957,5200,17.0,0.005,0.0002149524393650732
60301.50753768844,111.16234170282003,5200,17.0,0.005,0.0002175536381609192
61055.27638190954,111.0868208454496,5200,17.0,0.005,0.00022015306976870273
61809.04522613065,111.01208912193337,5200,17.0,0.005,0.00022275075265415598
62562.81407035176,110.93781819009916,5200,17.0,0.005,0.0002253466975998043
63316.582914572864,110.86366925531931,5200,17.0,0.005,0.00022794090746037878
64070.351758793964,110.78930075562285,5200,17.0,0.005,0.00023053337709806035
64824.12060301507,110.7143761095812,5200,17.0,0.005,0.00023312409349902455
65577.88944723617,110.63857135121685,5200,17.0,0.005,0.00023571303606864302
66331.65829145728,110.56158247874693,5200,17.0,0.005,0.0002383001770986457
67085.42713567839,110.48313235046524,5200,17.0,0.005,0.00024088548239564658
67839.1959798995,110.40297697133873,5200,17.0,0.005,0.0002434689120567759
68592.9648241206,110.32091102771511,5200,17.0,0.005,0.00024605042137482445
69346.73366834171,110.23677254459389,5200,17.0,0.005,0.00024862996185236793
70100.50251256282,110.15044655981701,5200,17.0,0.005,0.00025120748230186764
70854.27135678392,110.06186773183482,5200,17.0,0.005,0.0002537829300067926
71608.04020100502,109.97102182189344,5200,17.0,0.005,0.00025635625191742486
72361.80904522612,109.87794601702224,5200,17.0,0.005,0.0002589273958542232
73115.57788944723,109.78272808649486,5200,17.0,0.005,0.0002614963116914472
73869.34673366834,109.68550439089815,5200,17.0,0.005,0.0002640629524941942
74623.11557788945,109.58645678897106,5200,17.0,0.005,0.0002666272755830561
75376.88442211055,109.48580851237746,5200,17.0,0.005,0.00026918924350224574
76130.65326633166,109.38381910198834,5200,17.0,0.005,0.00027174882486923226
76884.42211055275,109.2807785205373,5200,17.0,0.005,0.00027430599508661285
77638.19095477386,109.17700057519589,5200,17.0,0.005,0.00027686073690007246
78391.95979899497,109.07281579926929,5200,17.0,0.005,0.00027941304078977537
79145.72864321608,108.96856395448128,5200,17.0,0.005,0.0002819629051863102
79899.49748743718,108.86458632392497,5200,17.0,0.005,0.00028451033650629004
80653.26633165829,108.76121797050284,5200,17.0,0.005,0.0002870553490067998
81407.0351758794,108.65878013646412,5200,17.0,0.005,0.00028959796446199307
82160.8040201005,108.55757295644526,5200,17.0,0.005,0.0002921382116691739
82914.5728643216,108.45786864930902,5200,17.0,0.005,0.0002946761257955677
83668.3417085427,108.35990534321631,5200,17.0,0.005,0.00029721174758059896
84422.11055276381,108.2638816740009,5200,17.0,0.005,0.0002997451224117706
85175.87939698492,108.16995227937592,5200,17.0,0.005,0.000302276299295108
85929.64824120603,108.07822429117994,5200,17.0,0.005,0.0003048053297435216
86683.41708542714,107.98875490523157,5200,17.0,0.005,0.000307332266608304
87437.18592964824,107.90155008391736,5200,17.0,0.005,0.0003098571628802677
88190.95477386934,107.81656442094274,5200,17.0,0.005,0.00031238007048771773
88944.72361809044,107.73370217131445,5200,17.0,0.005,0.0003149010391185265
89698.49246231155,107.6528194231902,5200,17.0,0.005,0.00031742011509302914
90452.26130653266,107.57372736233012,5200,17.0,0.005,0.00031993734031330765
91206.03015075377,107.49619655510048,5200,17.0,0.005,0.000322452751312697
91959.79899497487,107.41996215287496,5200,17.0,0.005,0.0003249663784270743
92713.56783919598,107.3447298997786,5200,17.0,0.005,0.0003274782451067291
93467.33668341709,107.27018280749678,5200,17.0,0.005,0.0003299883673844245
94221.10552763818,107.19598834573972,5200,17.0,0.005,0.0003324967535117148
94974.87437185929,107.12180598525624,5200,17.0,0.005,0.0003350034037717698
95728.6432160804,107.04729492229369,5200,17.0,0.005,0.0003375083104729515
96482.4120603015,106.97212180928436,5200,17.0,0.005,0.00034001145812328874
97236.18090452261,106.89596831639828,5200,17.0,0.005,0.0003425128237818925
97989.94974874372,106.81853835243814,5200,17.0,0.005,0.00034501237757933955
98743.71859296483,106.73956478128022,5200,17.0,0.005,0.0003475100833952215
99497.48743718592,106.65881548150715,5200,17.0,0.005,0.0003500058996774888
100251.25628140703,106.57609861177812,5200,17.0,0.005,0.0003524997803850044
101005.02512562813,106.49126696249834,5200,17.0,0.005,0.00035499167603192687
101758.79396984924,106.40422129507571,5200,17.0,0.005,0.0003574815348102316
102512.56281407035,106.3149125930182,5200,17.0,0.005,0.00035996930376490827
103266.33165829146,106.22334317380889,5200,17.0,0.005,0.0003624549299951754
104020.10050251256,106.1295666363367,5200,17.0,0.005,0.00036493836185446564
104773.86934673367,106.03368664507603,5200,17.0,0.005,0.0003674195501219604
105527.63819095476,105.93585457859388,5200,17.0,0.005,0.0003698984491190995
106281.40703517587,105.83626609572543,5200,17.0,0.005,0.0003723750177457395
107035.17587939698,105.73515669730989,5200,17.0,0.005,0.00037484922041245653
107788.94472361809,105.63279638416249,5200,17.0,0.005,0.00037732102784784595
108542.7135678392,105.52948353245984,5200,17.0,0.005,0.0003797904177625055
109296.4824120603,105.42553812546736,5200,17.0,0.005,0.0003822573753546414
110050.25125628141,105.32129449513829,5200,17.0,0.005,0.0003847218936458276
110804.0201005025,105.21709373823145,5200,17.0,0.005,0.00038718397363930225
111557.78894472361,105.11327597897825,5200,17.0,0.005,0.00038964362429721035
112311.55778894472,105.01017265381023,5200,17.0,0.005,0.0003921008623373095
113065.32663316582,104.90809899315798,5200,17.0,0.005,0.0003945557118537494
113819.09547738693,104.8073468708619,5200,17.0,0.005,0.00039700820377052754
114572.86432160804,104.70817818339665,5200,17.0,0.005,0.00039945837514001903
115326.63316582915,104.61081890909284,5200,17.0,0.005,0.0004019062683024918
116080.40201005025,104.51545398211475,5200,17.0,0.005,0.0004043519299256733
116834.17085427135,104.42222309747105,5200,17.0,0.005,0.0004067954099461541
117587.93969849245,104.33121754221676,5200,17.0,0.005,0.000409236760436642
118341.70854271356,104.24247812472602,5200,17.0,0.005,0.00041167603442476055
119095.47738693467,104.15599424900748,5200,17.0,0.005,0.0004141132846901873
119849.24623115578,104.07170415506054,5200,17.0,0.005,0.0004165485625674157
120603.01507537688,103.98949631982012,5200,17.0,0.005,0.0004189819167812995
121356.78391959799,103.90921198691107,5200,17.0,0.005,0.0004214133923417932
122110.55276381908,103.83064876782863,5200,17.0,0.005,0.0004238430295229604
122864.32160804019,103.7535652328564,5200,17.0,0.005,0.0004262708629494092
123618.0904522613,103.67768638758301,5200,17.0,0.005,0.00042869692081087867
124371.8592964824,103.60270991078998,5200,17.0,0.005,0.0004311212242227911
125125.62814070351,103.52831301221251,5200,17.0,0.005,0.0004335437867472769
125879.39698492462,103.45415975461339,5200,17.0,0.005,0.00043596461408553487
126633.16582914573,103.37990867407916,5200,17.0,0.005,0.0004383837039485083
127386.93467336684,103.30522052568145,5200,17.0,0.005,0.00044080104610880926
128140.70351758793,103.22976597880357,5200,17.0,0.005,0.00044321662263271326
128894.47236180904,103.15323308757404,5200,17.0,0.005,0.0004456304082869625
129648.24120603014,103.07533436694982,5200,17.0,0.005,0.0004480423711111491
130402.01005025125,102.99581331393775,5200,17.0,0.005,0.0004504524731426952
131155.77889447234,102.91445022602886,5200,17.0,0.005,0.0004528606712779843
131909.54773869345,102.83106718486191,5200,17.0,0.005,0.0004552669182501101
132663.31658291456,102.74553209206809,5200,17.0,0.005,0.00045767116370106447
133417.08542713567,102.65776166574959,5200,17.0,0.005,0.000460073355324043
134170.85427135677,102.56772332962015,5200,17.0,0.005,0.00046247344004995614
134924.62311557788,102.47543595195557,5200,17.0,0.005,0.0004648713652512319
135678.391959799,102.38096941759149,5200,17.0,0.005,0.00046726707993560354
136432.1608040201,102.28444304267754,5200,17.0,0.005,0.0004696605359028022
137185.9296482412,102.18602286814682,5200,17.0,0.005,0.00047205168883791685
137939.6984924623,102.08591789329488,5200,17.0,0.005,0.00047444049931661997
138693.46733668342,101.98437533490474,5200,17.0,0.005,0.00047682693369945675
139447.23618090453,101.88167501945799,5200,17.0,0.005,0.00047921096489491206
140201.00502512563,101.7781230356378,5200,17.0,0.005,0.000481592572973946
140954.77386934674,101.67404479110834,5200,17.0,0.005,0.00048397174562205794
141708.54271356785,101.5697776310683,5200,17.0,0.005,0.0004863484784186249
142462.31155778893,101.46566318601711,5200,17.0,0.005,0.0004887227749371777
143216.08040201003,101.36203962231488,5200,17.0,0.005,0.0004910946466643399
143969.84924623114,101.25923397132156,5200,17.0,0.005,0.0004934641127392688
144723.61809045225,101.15755471111918,5200,17.0,0.005,0.000495831199519509
145477.38693467336,101.0572847690908,5200,17.0,0.005,0.0004981959399831057
146231.15577889446,100.95867510408361,5200,17.0,0.005,0.0005005583729805412
146984.92462311557,100.86193901373633,5200,17.0,0.005,0.0005029185423534627
147738.69346733668,100.76724729610184,5200,17.0,0.005,0.0005052764959401915
148492.46231155779,100.67472437531714,5200,17.0,0.005,0.0005076322844905739
149246.2311557789,100.58444547920487,5200,17.0,0.005,0.0005099859605147873
150000.0,100.4964349328288,5200,17.0,0.005,0.0005123375770922155
