cycle,stress,F2_actual,d1,Cr,wear_depth
0.0,47.61904761904761,1600,17.0,0.009000000000000001,3.428571428571428e-07
753.7688442211055,47.598172204039166,1600,17.0,0.009000000000000001,6.855639827262248e-07
1507.537688442211,47.576956117681014,1600,17.0,0.009000000000000001,1.0281180667735281e-06
2261.3065326633164,47.55506641630661,1600,17.0,0.009000000000000001,1.3705145449709357e-06
3015.075376884422,47.53218543632324,1600,17.0,0.009000000000000001,1.712746280112463e-06
3768.8442211055276,47.50801799999439,1600,17.0,0.009000000000000001,2.0548040097124227e-06
4522.613065326633,47.48229811115988,1600,17.0,0.009000000000000001,2.396676556112774e-06
5276.381909547738,47.45479498901012,1600,17.0,0.009000000000000001,2.7383510800336466e-06
6030.150753768844,47.42531830304636,1600,17.0,0.009000000000000001,3.0798133718155805e-06
6783.91959798995,47.393722490478694,1600,17.0,0.009000000000000001,3.4210481737470272e-06
7537.688442211055,47.35991005812707,1600,17.0,0.009000000000000001,3.762039526165542e-06
8291.45728643216,47.32383379392639,1600,17.0,0.009000000000000001,4.102771129481812e-06
9045.226130653265,47.28549783787037,1600,17.0,0.009000000000000001,4.443226713914479e-06
9798.994974874371,47.244957588101116,1600,17.0,0.009000000000000001,4.783390408548807e-06
10552.763819095477,47.20231844427492,1600,17.0,0.009000000000000001,5.123247101347586e-06
11306.532663316582,47.157733416709206,1600,17.0,0.009000000000000001,5.462782781947892e-06
12060.301507537688,47.11139965554395,1600,17.0,0.009000000000000001,5.801984859467809e-06
12814.070351758794,47.063553978649125,1600,17.0,0.009000000000000001,6.140842448114082e-06
13567.8391959799,47.01446749972171,1600,17.0,0.009000000000000001,6.479346614112078e-06
14321.608040201005,46.96443947842672,1600,17.0,0.009000000000000001,6.817490578356751e-06
15075.37688442211,46.91379053208389,1600,17.0,0.009000000000000001,7.155269870187754e-06
15829.145728643216,46.86285536288396,1600,17.0,0.009000000000000001,7.492682428800519e-06
16582.91457286432,46.811975165608104,1600,17.0,0.009000000000000001,7.829728649992898e-06
17336.683417085427,46.761489888071395,1600,17.0,0.009000000000000001,8.166411377187013e-06
18090.45226130653,46.71173051985222,1600,17.0,0.009000000000000001,8.502735836929948e-06
18844.22110552764,46.66301158422734,1600,17.0,0.009000000000000001,8.838709520336385e-06
19597.989949748742,46.61562400362364,1600,17.0,0.009000000000000001,9.174342013162475e-06
20351.75879396985,46.56982850042402,1600,17.0,0.009000000000000001,9.509644778365528e-06
21105.527638190953,46.52584968282192,1600,17.0,0.009000000000000001,9.844630896081846e-06
21859.29648241206,46.48387094987873,1600,17.0,0.009000000000000001,1.0179314766920974e-05
22613.065326633165,46.44403033135641,1600,17.0,0.009000000000000001,1.051371178530674e-05
23366.834170854272,46.406417356693304,1600,17.0,0.009000000000000001,1.0847837990274932e-05
24120.603015075376,46.371071024146104,1600,17.0,0.009000000000000001,1.1181709701648784e-05
24874.37185929648,46.33797891616548,1600,17.0,0.009000000000000001,1.1515343149845176e-05
25628.140703517587,46.30707748107198,1600,17.0,0.009000000000000001,1.1848754107708894e-05
26381.90954773869,46.278253474642554,1600,17.0,0.009000000000000001,1.218195753272632e-05
27135.6783919598,46.25134652890734,1600,17.0,0.009000000000000001,1.2514967227734453e-05
27889.447236180902,46.226152789886925,1600,17.0,0.009000000000000001,1.284779552782164e-05
28643.21608040201,46.20242954175272,1600,17.0,0.009000000000000001,1.3180453020522258e-05
29396.984924623113,46.17990071251743,1600,17.0,0.009000000000000001,1.3512948305652383e-05
30150.75376884422,46.158263136366294,1600,17.0,0.009000000000000001,1.384528780023422e-05
30904.522613065325,46.13719343057637,1600,17.0,0.009000000000000001,1.417747559293437e-05
31658.291457286432,46.11635533102971,1600,17.0,0.009000000000000001,1.4509513351317783e-05
32412.060301507536,46.09540731992425,1600,17.0,0.009000000000000001,1.4841400284021238e-05
33165.82914572864,46.07401037265765,1600,17.0,0.009000000000000001,1.5173133158704373e-05
33919.59798994975,46.05183564815603,1600,17.0,0.009000000000000001,1.5504706375371098e-05
34673.366834170854,46.02857194820278,1600,17.0,0.009000000000000001,1.5836112093398158e-05
35427.13567839196,46.0039327765624,1600,17.0,0.009000000000000001,1.6167340409389407e-05
36180.90452261306,45.977662837772016,1600,17.0,0.009000000000000001,1.6498379581821365e-05
36934.67336683417,45.94954382818444,1600,17.0,0.009000000000000001,1.6829216297384294e-05
37688.44221105528,45.91939938790038,1600,17.0,0.009000000000000001,1.715983597297718e-05
38442.21105527638,45.887099101261555,1600,17.0,0.009000000000000001,1.7490223086506262e-05
39195.979899497484,45.85256145515902,1600,17.0,0.009000000000000001,1.782036152898341e-05
39949.74874371859,45.81575568805127,1600,17.0,0.009000000000000001,1.8150234969937378e-05
40703.5175879397,45.77670248774942,1600,17.0,0.009000000000000001,1.8479827227849175e-05
41457.2864321608,45.735473522141355,1600,17.0,0.009000000000000001,1.8809122637208594e-05
42211.05527638191,45.692189813499645,1600,17.0,0.009000000000000001,1.9138106403865792e-05
42964.824120603014,45.64701899324984,1600,17.0,0.009000000000000001,1.9466764940617192e-05
43718.59296482412,45.60017149947126,1600,17.0,0.009000000000000001,1.9795086175413386e-05
44472.36180904522,45.551895803385015,1600,17.0,0.009000000000000001,2.0123059825197758e-05
45226.13065326633,45.50247277310988,1600,17.0,0.009000000000000001,2.0450677629164148e-05
45979.89949748744,45.45220930253713,1600,17.0,0.009000000000000001,2.0777933536142416e-05
46733.668341708544,45.40143134984484,1600,17.0,0.009000000000000001,2.11048238418613e-05
47487.437185929644,45.35047654356373,1600,17.0,0.009000000000000001,2.143134727297496e-05
48241.20603015075,45.299686523916385,1600,17.0,0.009000000000000001,2.1757505015947157e-05
48994.97487437186,45.2493991931566,1600,17.0,0.009000000000000001,2.2083300690137884e-05
49748.74371859296,45.19994105069951,1600,17.0,0.009000000000000001,2.240874026570292e-05
50502.51256281407,45.151619786910224,1600,17.0,0.009000000000000001,2.2733831928168672e-05
51256.281407035174,45.10471730355116,1600,17.0,0.009000000000000001,2.305858589275424e-05
52010.05025125628,45.05948331920998,1600,17.0,0.009000000000000001,2.338301417265255e-05
52763.81909547738,45.01612970476065,1600,17.0,0.009000000000000001,2.3707130306526825e-05
53517.58793969849,44.97482567735036,1600,17.0,0.009000000000000001,2.4030949051403747e-05
54271.3567839196,44.93569396193028,1600,17.0,0.009000000000000001,2.4354486047929644e-05
55025.125628140704,44.89880800740087,1600,17.0,0.009000000000000001,2.467775746558293e-05
55778.894472361804,44.864190320519825,1600,17.0,0.009000000000000001,2.500077963589067e-05
56532.66331658291,44.831811955365794,1600,17.0,0.009000000000000001,2.5323568681969304e-05
57286.43216080402,44.80159316993864,1600,17.0,0.009000000000000001,2.5646140152792863e-05
58040.20100502513,44.77340523500223,1600,17.0,0.009000000000000001,2.596850867048488e-05
58793.96984924623,44.74707335413845,1600,17.0,0.009000000000000001,2.6290687598634677e-05
59547.738693467334,44.722380628774914,1600,17.0,0.009000000000000001,2.6612688739161855e-05
60301.50753768844,44.69907297824477,1600,17.0,0.009000000000000001,2.6934522064605217e-05
61055.27638190954,44.676864903273724,1600,17.0,0.009000000000000001,2.7256195491908788e-05
61809.04522613065,44.655445962156904,1600,17.0,0.009000000000000001,2.757771470283632e-05
62562.81407035176,44.63448781272208,1600,17.0,0.009000000000000001,2.789908301508792e-05
63316.582914572864,44.61365166034161,1600,17.0,0.009000000000000001,2.822030130704238e-05
64070.351758793964,44.59259594304454,1600,17.0,0.009000000000000001,2.85413679978323e-05
64824.12060301507,44.570984079402294,1600,17.0,0.009000000000000001,2.8862279083203998e-05
65577.88944723617,44.54849210343734,1600,17.0,0.009000000000000001,2.9183028226348747e-05
66331.65829145728,44.524816013366795,1600,17.0,0.009000000000000001,2.9503606901644986e-05
67085.42713567839,44.499678667484496,1600,17.0,0.009000000000000001,2.9824004588050874e-05
67839.1959798995,44.47283607075739,1600,17.0,0.009000000000000001,3.0144209007760326e-05
68592.9648241206,44.44408290953317,1600,17.0,0.009000000000000001,3.0464206404708966e-05
69346.73366834171,44.41325720881132,1600,17.0,0.009000000000000001,3.0783981856612405e-05
70100.50251256282,44.380244006433834,1600,17.0,0.009000000000000001,3.110351961345873e-05
70854.27135678392,44.34497796085104,1600,17.0,0.009000000000000001,3.1422803454776856e-05
71608.04020100502,44.30744483330906,1600,17.0,0.009000000000000001,3.174181705757668e-05
72361.80904522612,44.26768181083725,1600,17.0,0.009000000000000001,3.206054436661471e-05
73115.57788944723,44.22577666270925,1600,17.0,0.009000000000000001,3.2378969958586215e-05
73869.34673366834,44.18186574951194,1600,17.0,0.009000000000000001,3.26970793919827e-05
74623.11557788945,44.13613092998425,1600,17.0,0.009000000000000001,3.3014859534678586e-05
75376.88442211055,44.08879543579005,1600,17.0,0.009000000000000001,3.3332298861816275e-05
76130.65326633166,44.04011880780031,1600,17.0,0.009000000000000001,3.3649387717232434e-05
76884.42211055275,43.990391008748645,1600,17.0,0.009000000000000001,3.3966118532495423e-05
77638.19095477386,43.939925845806634,1600,17.0,0.009000000000000001,3.428248599858523e-05
78391.95979899497,43.88905385227943,1600,17.0,0.009000000000000001,3.459848718632164e-05
79145.72864321608,43.838114789890824,1600,17.0,0.009000000000000001,3.491412161280886e-05
79899.49748743718,43.78744994173388,1600,17.0,0.009000000000000001,3.5229391252389344e-05
80653.26633165829,43.73739437071115,1600,17.0,0.009000000000000001,3.5544300491858464e-05
81407.0351758794,43.68826931907182,1600,17.0,0.009000000000000001,3.5858856030955784e-05
82160.8040201005,43.64037492145236,1600,17.0,0.009000000000000001,3.6173066730390244e-05
82914.5728643216,43.593983396715515,1600,17.0,0.009000000000000001,3.64869434108466e-05
83668.3417085427,43.54933287302218,1600,17.0,0.009000000000000001,3.680049860753236e-05
84422.11055276381,43.50662198620617,1600,17.0,0.009000000000000001,3.711374628583304e-05
85175.87939698492,43.4660053739806,1600,17.0,0.009000000000000001,3.74267015245257e-05
85929.64824120603,43.427590168184004,1600,17.0,0.009000000000000001,3.773938017373663e-05
86683.41708542714,43.39143356463504,1600,17.0,0.009000000000000001,3.8051798495402e-05
87437.18592964824,43.3575415257202,1600,17.0,0.009000000000000001,3.8363972794387184e-05
88190.95477386934,43.32586864514498,1600,17.0,0.009000000000000001,3.8675919048632226e-05
88944.72361809044,43.29631917791609,1600,17.0,0.009000000000000001,3.898765254671322e-05
89698.49246231155,43.26874921219122,1600,17.0,0.009000000000000001,3.9299187541040997e-05
90452.26130653266,43.24296993373053,1600,17.0,0.009000000000000001,3.961053692456385e-05
91206.03015075377,43.21875190890029,1600,17.0,0.009000000000000001,3.9921711938307935e-05
91959.79899497487,43.19583028907415,1600,17.0,0.009000000000000001,4.023272191638927e-05
92713.56783919598,43.17391081837719,1600,17.0,0.009000000000000001,4.054357407428158e-05
93467.33668341709,43.152676508494764,1600,17.0,0.009000000000000001,4.085427334514274e-05
94221.10552763818,43.131794829137085,1600,17.0,0.009000000000000001,4.116482226791253e-05
94974.87437185929,43.11092525105301,1600,17.0,0.009000000000000001,4.1475220929720114e-05
95728.6432160804,43.08972697048985,1600,17.0,0.009000000000000001,4.178546696390764e-05
96482.4120603015,43.06786663987992,1600,17.0,0.009000000000000001,4.209555560371477e-05
97236.18090452261,43.04502592939322,1600,17.0,0.009000000000000001,4.2405479790406404e-05
97989.94974874372,43.02090874783248,1600,17.0,0.009000000000000001,4.2715230333390795e-05
98743.71859296483,42.99524795907394,1600,17.0,0.009000000000000001,4.302479611869613e-05
99497.48743718592,42.96781144170026,1600,17.0,0.009000000000000001,4.333416436107637e-05
100251.25628140703,42.93840735437063,1600,17.0,0.009000000000000001,4.364332089402784e-05
101005.02512562813,42.90688848749025,1600,17.0,0.009000000000000001,4.395225049113777e-05
101758.79396984924,42.873155602467,1600,17.0,0.009000000000000001,4.4260937211475534e-05
102512.56281407035,42.837159682808895,1600,17.0,0.009000000000000001,4.456936476119176e-05
103266.33165829146,42.79890304599896,1600,17.0,0.009000000000000001,4.487751686312295e-05
104020.10050251256,42.75843929092618,1600,17.0,0.009000000000000001,4.5185377626017616e-05
104773.86934673367,42.7158720820649,1600,17.0,0.009000000000000001,4.549293190500848e-05
105527.63819095476,42.67135279798212,1600,17.0,0.009000000000000001,4.5800165645153954e-05
106281.40703517587,42.62507709751307,1600,17.0,0.009000000000000001,4.610706620025605e-05
107035.17587939698,42.57728048149693,1600,17.0,0.009000000000000001,4.6413622619722825e-05
107788.94472361809,42.528232950748915,1600,17.0,0.009000000000000001,4.671982589696822e-05
108542.7135678392,42.478232881445656,1600,17.0,0.009000000000000001,4.702566917371463e-05
109296.4824120603,42.427600256852564,1600,17.0,0.009000000000000001,4.7331147895563964e-05
110050.25125628141,42.37666940892289,1600,17.0,0.009000000000000001,4.763625991530821e-05
110804.0201005025,42.325781434415454,1600,17.0,0.009000000000000001,4.7941005541636005e-05
111557.78894472361,42.275276457561645,1600,17.0,0.009000000000000001,4.8245387532130446e-05
112311.55778894472,42.225485914793005,1600,17.0,0.009000000000000001,4.8549411030716955e-05
113065.32663316582,42.17672503654015,1600,17.0,0.009000000000000001,4.885308345098004e-05
113819.09547738693,42.129285696643464,1600,17.0,0.009000000000000001,4.915641430799587e-05
114572.86432160804,42.08342979157761,1600,17.0,0.009000000000000001,4.945941500249523e-05
115326.63316582915,42.039383299673204,1600,17.0,0.009000000000000001,4.976209856225287e-05
116080.40201005025,41.99733115509448,1600,17.0,0.009000000000000001,5.006447934656955e-05
116834.17085427135,41.95741305285017,1600,17.0,0.009000000000000001,5.0366572720550074e-05
117587.93969849245,41.91972027999529,1600,17.0,0.009000000000000001,5.066839470656604e-05
118341.70854271356,41.88429364490395,1600,17.0,0.009000000000000001,5.096996162080935e-05
119095.47738693467,41.85112255158478,1600,17.0,0.009000000000000001,5.127128970318076e-05
119849.24623115578,41.82014524003725,1600,17.0,0.009000000000000001,5.157239474890903e-05
120603.01507537688,41.79125018719621,1600,17.0,0.009000000000000001,5.1873291750256843e-05
121356.78391959799,41.764278636686555,1600,17.0,0.009000000000000001,5.2173994556440984e-05
122110.55276381908,41.73902820000352,1600,17.0,0.009000000000000001,5.247451555948101e-05
122864.32160804019,41.71525744743067,1600,17.0,0.009000000000000001,5.2774865413102515e-05
123618.0904522613,41.69269138455666,1600,17.0,0.009000000000000001,5.307505279107132e-05
124371.8592964824,41.671027690163044,1600,17.0,0.009000000000000001,5.33750841904405e-05
125125.62814070351,41.649943573984956,1600,17.0,0.009000000000000001,5.367496378417319e-05
125879.39698492462,41.62910309878522,1600,17.0,0.009000000000000001,5.397469332648444e-05
126633.16582914573,41.60816480065038,1600,17.0,0.009000000000000001,5.427427211304912e-05
127386.93467336684,41.58678943465206,1600,17.0,0.009000000000000001,5.457369699697862e-05
128140.70351758793,41.564647670173585,1600,17.0,0.009000000000000001,5.4872962460203873e-05
128894.47236180904,41.54142756134344,1600,17.0,0.009000000000000001,5.5172060738645545e-05
129648.24120603014,41.5168416231186,1600,17.0,0.009000000000000001,5.5470981998332e-05
130402.01005025125,41.490633352505924,1600,17.0,0.009000000000000001,5.576971455847004e-05
131155.77889447234,41.46258304699645,1600,17.0,0.009000000000000001,5.606824515640841e-05
131909.54773869345,41.43251278822888,1600,17.0,0.009000000000000001,5.636655924848366e-05
132663.31658291456,41.40029047783446,1600,17.0,0.009000000000000001,5.6664641339924064e-05
133417.08542713567,41.365832833915334,1600,17.0,0.009000000000000001,5.6962475336328256e-05
134170.85427135677,41.3291072801853,1600,17.0,0.009000000000000001,5.726004490874559e-05
134924.62311557788,41.29013268492012,1600,17.0,0.009000000000000001,5.7557333864077014e-05
135678.391959799,41.24897893295543,1600,17.0,0.009000000000000001,5.7854326512394296e-05
136432.1608040201,41.20576534044086,1600,17.0,0.009000000000000001,5.815100802284547e-05
137185.9296482412,41.16065794830953,1600,17.0,0.009000000000000001,5.84473647600733e-05
137939.6984924623,41.11386575585699,1600,17.0,0.009000000000000001,5.874338459351547e-05
138693.46733668342,41.06563597986624,1600,17.0,0.009000000000000001,5.9039057172570506e-05
139447.23618090453,41.01624844681887,1600,17.0,0.009000000000000001,5.93343741613876e-05
140201.00502512563,40.966009245398084,1600,17.0,0.009000000000000001,5.962932942795447e-05
140954.77386934674,40.91524378326802,1600,17.0,0.009000000000000001,5.9923919183194e-05
141708.54271356785,40.86428940562736,1600,17.0,0.009000000000000001,6.021814206691451e-05
142462.31155778893,40.813487742975575,1600,17.0,0.009000000000000001,6.051199917866394e-05
143216.08040201003,40.76317696167273,1600,17.0,0.009000000000000001,6.0805494052787984e-05
143969.84924623114,40.713684093078804,1600,17.0,0.009000000000000001,6.109863257825816e-05
144723.61809045225,40.66531761527581,1600,17.0,0.009000000000000001,6.139142286508814e-05
145477.38693467336,40.61836045564682,1600,17.0,0.009000000000000001,6.16838750603688e-05
146231.15577889446,40.57306357303903,1600,17.0,0.009000000000000001,6.197600111809468e-05
146984.92462311557,40.529640265091146,1600,17.0,0.009000000000000001,6.226781452800333e-05
147738.69346733668,40.48826132985604,1600,17.0,0.009000000000000001,6.25593300095783e-05
148492.46231155779,40.44905119147074,1600,17.0,0.009000000000000001,6.285056317815688e-05
149246.2311557789,40.41208507775787,1600,17.0,0.009000000000000001,6.314153019071674e-05
150000.0,40.377387313781185,1600,17.0,0.009000000000000001,6.343224737937596e-05
